#F f1f2_EPDL97.dat
#C  This file has been created using f1f2_EPDL97.pro 
#D  Fri Sep 11 10:19:50 1998
#C  This file belongs to the DABAX library. More information on
#C  DABAX can be found at:
#C  http://www.esrf.fr/computing/scientific/dabax
#UIDL xf1f2
#UT Elastic Photon-Atom Scattering, anomalous scattering factors.
#UD Elastic Photon-Atom Scattering, anomalous scattering factors.
#UD 
#UD The anomalous scattering factors stored in this file come from the 
#UD Evaluated Photon Data Library (EPDL) from the Lawrence Livermore 
#UD National Laboratory: 
#UD    "EPDL97 The Evaluated Data Library, 97 Version"
#UD     Dermott E Cullen, John H Hubbel, Lynn Kissel
#UD        UCRL-50400, Vol 6, Rev 5 (Sep 19 1997)
#UD 
#UD Availability:
#UD In USA: contact the Radiation Safety Information Computational 
#UD         Center (RSICC):
#UD         http://epicws.cped.ornl.gov/rsic.html
#UD In Europe Korea and Japan: contact the Nuclear Energy Agence:
#UD         http://www.nea.fr
#UD The data in this file are valid in the energy range 1.0 eV to 1.0 MeV 
#UD for the elements Z = 1 - 100.
#UD Column description: 1:PhotonEnergy[eV]  2:f1  3:f2
#UD 
#S  1 H 
#UF1ADD 0.0
#N 3
#L PhotonEnergy[eV]  f1  f2
     1.000000   0.003851712      0.000000 
     3.006048    0.03809571      0.000000 
     4.918349     0.1233452      0.000000 
     6.075000     0.2269065      0.000000 
     6.834375     0.3392507      0.000000 
     7.369288     0.4574884      0.000000 
     7.749457     0.5746379      0.000000 
     8.013003     0.6805458      0.000000 
     8.189822     0.7674884      0.000000 
     8.352252     0.8621957      0.000000 
     8.452690     0.9296871      0.000000 
     8.546851      1.000574      0.000000 
     8.635127      1.074643      0.000000 
     8.717886      1.152219      0.000000 
     8.795472      1.233371      0.000000 
     8.868209      1.318028      0.000000 
     8.936400      1.406221      0.000000 
     9.060264      1.593742      0.000000 
     9.169127      1.795943      0.000000 
     9.264807      2.012947      0.000000 
     9.387050      2.365727      0.000000 
     9.487774      2.749493      0.000000 
     9.570768      3.161485      0.000000 
     9.659162      3.746669      0.000000 
     9.727443      4.360716      0.000000 
     9.780187      4.987632      0.000000 
     9.839296      5.946219      0.000000 
     9.878896      6.837836      0.000000 
     9.912154      7.855318      0.000000 
     9.939390      9.023216      0.000000 
     9.957869      10.23897      0.000000 
     9.959266      10.36095      0.000000 
     9.968697      11.18446     0.4520955 
     10.00216      13.40866      2.056141 
     10.00829      13.81610      2.346878 
     10.03281      15.76501      4.286764 
     10.03587      16.00826      4.654032 
     10.05732      17.40007      7.228074 
     10.06575      17.94708      8.644896 
     10.08490      18.47164      11.86343 
     10.09026      18.61845      12.97756 
     10.11477      17.83063      18.07255 
     10.12784      16.58239      20.78953 
     10.13086      16.29402      21.37888 
     10.14762      13.87969      24.65010 
     10.15691      11.99751      26.46340 
     10.17504      8.042591      28.83233 
     10.17928      6.903776      29.38636 
     10.18248      5.920188      29.80443 
     10.19721      2.126382      30.38913 
     10.20036      1.271000      30.51415 
     10.20137     0.9826310      30.55426 
     10.20269     0.5873539      30.60664 
     10.20386     0.2113593      30.65310 
     10.20450   -0.03243101      30.67848 
     10.20494    -0.1926900      30.69596 
     10.20660     0.3321382      30.76184 
     10.20764     0.6339508      30.80314 
     10.20830     0.8254857      30.76322 
     10.20895      1.005908      30.72396 
     10.21019      1.348255      30.64895 
     10.21356      2.238612      30.44522 
     10.22603      5.459616      29.69126 
     10.23151      7.098217      29.35995 
     10.23288      7.434777      29.27708 
     10.23770      8.618207      28.57672 
     10.25783      12.93382      25.65143 
     10.26035      13.47413      25.13727 
     10.28100      16.50886      20.92439 
     10.29642      17.81124      17.77841 
     10.29944      18.06626      17.16023 
     10.32352      18.60516      12.23043 
     10.32697      18.47217      11.52399 
     10.35148      17.52750      7.439484 
     10.37599      15.82913      4.433400 
     10.40051      13.97706      2.438850 
     10.41698      12.73303      1.624133 
     10.43728      11.35868     0.6199655 
     10.44800      10.63295    0.07746692 
     10.44953      10.49779      0.000000 
     10.45877      9.681934      0.000000 
     10.48485      8.322947      0.000000 
     10.51552      7.230501      0.000000 
     10.55530      6.206536      0.000000 
     10.60346      5.303157      0.000000 
     10.65884      4.534493      0.000000 
     10.72872      3.814236      0.000000 
     10.79460      3.295856      0.000000 
     10.88626      2.737329      0.000000 
     10.96960      2.336292      0.000000 
     11.04616      2.026805      0.000000 
     11.13788      1.706109      0.000000 
     11.21849      1.453844      0.000000 
     11.29162      1.239264      0.000000 
     11.41961     0.8739660      0.000000 
     11.46760     0.7332232      0.000000 
     11.54635     0.4863507      0.000000 
     11.61729     0.2320874      0.000000 
     11.68500   -0.06438100      0.000000 
     11.73416    -0.3413700      0.000000 
     11.77135   -0.07495499      0.000000 
     11.79118     0.1156502      0.000000 
     11.80226     0.2612613      0.000000 
     11.80357     0.2849146      0.000000 
     11.80402     0.2930453   0.003513614 
     11.80665     0.3405490    0.02371470 
     11.81771     0.4834782     0.1086612 
     11.84533     0.7868229     0.3207865 
     11.85350     0.8818386     0.3835342 
     11.85759     0.9337996     0.4149465 
     11.85963     0.9621146     0.4304534 
     11.86168     0.9950557     0.4460364 
     11.86349      1.024770     0.4690064 
     11.86690      1.071937     0.5122915 
     11.88477      1.296684     0.7390826 
     11.88924      1.359979     0.7958149 
     11.89073      1.386120     0.8147219 
     11.89254      1.417878     0.8502913 
     11.89595      1.465062     0.9173012 
     11.92160      1.766156      1.421404 
     11.92500      1.806063      1.512106 
     11.93096      1.856093      1.671113 
     11.95065      1.975005      2.196447 
     11.95406      1.995596      2.309847 
     11.96448      1.999947      2.656399 
     11.98152      1.935151      3.223127 
     11.99443      1.808632      3.652468 
     12.00225      1.690370      3.912541 
     12.00460      1.654828      3.986923 
     12.01420      1.461563      4.290786 
     12.01965      1.343577      4.463270 
     12.02374      1.247428      4.592720 
     12.02680      1.169986      4.689555 
     12.02910      1.108292      4.762354 
     12.03255      1.008244      4.871567 
     12.03427     0.9533427      4.926001 
     12.03513     0.9237788      4.953203 
     12.03690     0.8552236      5.009249 
     12.05449     0.2701800      5.376581 
     12.06317   -0.06426501      5.557853 
     12.06838    -0.3034192      5.666647 
     12.07033    -0.3929350      5.679735 
     12.08780     0.2986620      5.796991 
     12.09233     0.5014481      5.827391 
     12.09366     0.5696034      5.836321 
     12.09455     0.6239252      5.842291 
     12.09718     0.7530515      5.859945 
     12.09880     0.8256849      5.845708 
     12.10185     0.9551830      5.818898 
     12.10717      1.170601      5.772144 
     12.11916      1.648265      5.666766 
     12.12315      1.831805      5.631698 
     12.12582      1.957451      5.608229 
     12.13489      2.299402      5.397888 
     12.15743      3.052142      4.875188 
     12.17456      3.467624      4.314697 
     12.19125      3.772842      3.768581 
     12.20316      3.886079      3.378880 
     12.21031      3.954065      3.144087 
     12.23528      3.988488      2.324164 
     12.23936      3.958802      2.190193 
     12.26479      3.773781      1.510878 
     12.26842      3.725964      1.413913 
     12.29747      3.343271     0.8425908 
     12.32652      2.915552     0.4635161 
     12.33651      2.768466     0.3850903 
     12.35558      2.521409     0.2353786 
     12.37737      2.239121    0.05882807 
     12.38463      2.109225      0.000000 
     12.39055      2.003313      0.000000 
     12.40427      1.816036      0.000000 
     12.44908      1.308047      0.000000 
     12.45291      1.264630    0.01022973 
     12.45961      1.194017    0.02812630 
     12.46967      1.096967    0.05499665 
     12.47972      1.006106    0.08184028 
     12.50270     0.8052224     0.1432211 
     12.50654     0.7716556     0.1533600 
     12.51037     0.7345811     0.1634725 
     12.51420     0.6975066     0.1803624 
     12.54101     0.4628249     0.2985958 
     12.54651     0.4146753     0.3361707 
     12.57356     0.2117050     0.5209450 
     12.58344     0.1375626     0.6125165 
     12.60421    0.03083444     0.8049985 
     12.61369   -0.01788402     0.9146363 
     12.64158   -0.06927705      1.237165 
     12.65952   -0.03910410      1.444629 
     12.66378   -0.03193903      1.491021 
     12.68694    0.07618189      1.743233 
     12.69613     0.1529878      1.843316 
     12.71947     0.3480391      2.018087 
     12.72677     0.4333009      2.072755 
     12.73067     0.4788475      2.084266 
     12.75236     0.7045471      2.148288 
     12.75742     0.7734033      2.163225 
     12.78614      1.083233      2.116277 
     12.78806      1.108695      2.113138 
     12.79165      1.147087      2.090152 
     12.79793      1.204635      2.049940 
     12.82061      1.381476      1.904716 
     12.83408      1.451878      1.788778 
     12.84508      1.489164      1.694093 
     12.85951      1.515365      1.569888 
     12.87343      1.514594      1.450074 
     12.87807      1.503838      1.410134 
     12.89410      1.466681      1.302387 
     12.90613      1.424383      1.221525 
     12.91013      1.404204      1.194639 
     12.94191      1.243883      1.106620 
     12.94588      1.219955      1.095625 
     12.97369      1.096567      1.093827 
     12.97798      1.075624      1.093550 
     12.98549      1.048216      1.109276 
     13.00310     0.9985306      1.146155 
     13.00802     0.9845484      1.156457 
     13.01384     0.9703086      1.168645 
     13.01873     0.9634730      1.178886 
     13.02256     0.9581198      1.187476 
     13.02692     0.9552851      1.197254 
     13.03128     0.9565417      1.207033 
     13.04147     0.9579511      1.229887 
     13.07924     0.9469390      1.287009 
     13.09002     0.9514835      1.303313 
     13.09541     0.9567358      1.311466 
     13.10079     0.9663659      1.319602 
     13.10997     0.9790989      1.333485 
     13.12347     0.9978257      1.333258 
     13.12726      1.002988      1.333195 
     13.13609      1.014907      1.333047 
     13.14550      1.027927      1.332889 
     13.16532      1.042495      1.332556 
     13.18077      1.053852      1.327149 
     13.21531      1.067890      1.315062 
     13.24785      1.077243      1.303675 
     13.28032      1.081778      1.292313 
     13.31799      1.083911      1.279130 
     13.34334      1.083873      1.270260 
     13.36517      1.088038      1.262620 
     13.39405      1.087357      1.252514 
     13.42543      1.080494      1.241533 
     13.43596      1.079649      1.237848 
     13.44648      1.084084      1.234603 
     13.48745      1.086862      1.221965 
     13.50870      1.092282      1.215410 
     13.51542      1.095738      1.213337 
     13.52357      1.093319      1.210823 
     13.53404      1.090211      1.209680 
     13.53649      1.090107      1.209412 
     13.56507      1.076588      1.206292 
     13.57600      1.075012      1.205098 
     13.58052      1.072773      1.204605 
     13.59345      1.071516      1.203193 
     13.59970      1.072991      1.202511 
     13.60315      1.072631      1.202134 
     13.61403      1.074961      1.200946 
     13.62498      1.073401      1.199750 
     13.63551      1.076398      1.198601 
     13.64626      1.076664      1.197427 
     13.66294      1.071970      1.195606 
     13.67275      1.071450      1.194534 
     13.67912      1.072912      1.193839 
     13.69114      1.072052      1.192526 
     13.70123      1.074311      1.191425 
     13.70841      1.072620      1.190641 
     13.73981      1.072398      1.187212 
     13.75408      1.073350      1.185654 
     13.77386      1.073531      1.183495 
     13.78603      1.074792      1.182166 
     13.79886      1.074406      1.180765 
     13.85305      1.079341      1.174848 
     13.93131      1.083929      1.166303 
     13.98189      1.089789      1.160780 
     14.06809      1.097990      1.151368 
     14.11998      1.102274      1.145703 
     14.43188      1.121270      1.111647 
     14.49822      1.124400      1.104404 
     14.80491      1.138870      1.070696 
     15.07483      1.150110      1.041029 
     15.92177      1.177164     0.9479418 
     16.41221      1.187783     0.8940378 
     16.97274      1.199920     0.8494619 
     18.28241      1.216497     0.7453106 
     18.69746      1.218336     0.7123039 
     20.43037      1.226013     0.6128128 
     20.98487      1.225238     0.5809775 
     23.55835      1.221640     0.4721851 
     25.91418      1.210456     0.3966658 
     29.13232      1.195178     0.3194468 
     31.84728      1.182289     0.2724637 
     32.84931      1.177796     0.2551233 
     36.13424      1.163069     0.2127905 
     39.92138      1.146089     0.1757037 
     40.77574      1.142259     0.1695030 
     44.68631      1.129166     0.1411211 
     49.59088      1.112746     0.1151161 
     55.13187      1.099318    0.09326272 
     59.04805      1.089828    0.08209482 
     61.74884      1.085172    0.07439288 
     67.88208      1.074598    0.06140412 
     69.59558      1.071644    0.05874592 
     75.97705      1.063630    0.04884620 
     79.51414      1.059189    0.04478787 
     83.51275      1.055461    0.04020001 
     91.29327      1.048209    0.03345616 
     101.3578      1.041414    0.02688692 
     105.3750      1.038702    0.02493789 
     110.7131      1.036120    0.02234800 
     120.3923      1.031438    0.01882620 
     122.7129      1.030618    0.01798184 
     134.3996      1.026489    0.01481737 
     137.6570      1.025339    0.01414795 
     146.4240      1.023119    0.01234626 
     156.2751      1.020624    0.01083476 
     163.2676      1.019310   0.009761864 
     175.3067      1.017048   0.008422684 
     179.6900      1.016430   0.007935104 
     195.5877      1.014189   0.006599114 
     212.7262      1.012386   0.005489403 
     220.9937      1.011515   0.005091059 
     235.5439      1.010429   0.004390003 
     252.3971      1.009170   0.003799766 
     261.0462      1.008704   0.003496854 
     284.5984      1.007434   0.002904704 
     290.1504      1.007213   0.002765116 
     316.2278      1.006173   0.002284116 
     345.5636      1.005305   0.001870606 
     355.9126      1.004999   0.001763809 
     383.2090      1.004413   0.001482123 
     400.2864      1.004046   0.001355783 
     424.4363      1.003664   0.001177119 
     445.0825      1.003338   0.001063767 
     462.8470      1.003131  0.0009662368 
     502.6628      1.002668  0.0008054253 
     512.0268      1.002590  0.0007676052 
     566.4023      1.002137  0.0006095886 
     615.8809      1.001843  0.0005026093 
     641.3915      1.001691  0.0004608721 
     670.3164      1.001567  0.0004135489 
     716.8310      1.001368  0.0003575741 
     742.6832      1.001287  0.0003264641 
     800.2919      1.001106  0.0002763965 
     819.6199      1.001060  0.0002595985 
     892.7987      1.000888  0.0002126801 
     909.4616      1.000849  0.0002045642 
     965.7661      1.000754  0.0001771405 
     1015.460      1.000670  0.0001591034 
     1068.488      1.000605  0.0001398562 
     1129.144      1.000531  0.0001234895 
     1156.538      1.000507  0.0001160978 
     1260.279      1.000415  9.484134E-05 
     1363.758      1.000349  7.878470E-05 
     1396.819      1.000327  7.488913E-05 
     1486.735      1.000284  6.429433E-05 
     1512.472      1.000272  6.202882E-05 
     1632.110      1.000231  5.149768E-05 
     1671.706      1.000218  4.898657E-05 
     1803.701      1.000184  4.061570E-05 
     1839.793      1.000175  3.897535E-05 
     1988.476      1.000147  3.221783E-05 
     2032.251      1.000139  3.078223E-05 
     2192.294      1.000116  2.553363E-05 
     2243.069      1.000109  2.430166E-05 
     2382.858      1.000094  2.090992E-05 
     2485.172      1.000084  1.904410E-05 
     2592.844      1.000075  1.708057E-05 
     2701.166      1.000067  1.563426E-05 
     2864.249      1.000057  1.345680E-05 
     2916.702      1.000054  1.295654E-05 
     3162.278      1.000042  1.061438E-05 
     3442.126      1.000031  8.651935E-06 
     3718.196      1.000023  7.223312E-06 
     3782.484      1.000021  6.890630E-06 
     3946.484      1.000017  6.278246E-06 
     4166.398      1.000013  5.457076E-06 
     4356.780      1.000009  4.937801E-06 
     4545.369      1.000006  4.423416E-06 
     4726.559      1.000004  4.063026E-06 
     4838.512      1.000003  3.840350E-06 
     4901.995      1.000002  3.714081E-06 
     5015.101      1.000000  3.489111E-06 
     5134.475     0.9999992  3.319164E-06 
     5217.491     0.9999984  3.200978E-06 
     5412.020     0.9999967  2.924037E-06 
     5536.401     0.9999956  2.746961E-06 
     5657.012     0.9999947  2.623841E-06 
     6001.012     0.9999923  2.272684E-06 
     6108.867     0.9999917  2.162585E-06 
     6482.416     0.9999896  1.889873E-06 
     6727.818     0.9999885  1.710716E-06 
     7153.575     0.9999867  1.481617E-06 
     7293.133     0.9999862  1.406521E-06 
     8045.052     0.9999839  1.108148E-06 
     8726.439     0.9999825  9.095985E-07 
     9427.917     0.9999810  7.577344E-07 
     9599.454     0.9999808  7.205981E-07 
     10576.73     0.9999796  5.686921E-07 
     11459.18     0.9999785  4.705032E-07 
     11665.05     0.9999784  4.475964E-07 
     12672.46     0.9999778  3.655333E-07 
     13781.98     0.9999771  2.977573E-07 
     14890.84     0.9999764  2.464505E-07 
     16412.97     0.9999760  1.943106E-07 
     17875.38     0.9999757  1.576324E-07 
     19601.53     0.9999753  1.257319E-07 
     21357.51     0.9999749  1.019033E-07 
     21810.41     0.9999748  9.740002E-08 
     23495.43     0.9999747  8.064553E-08 
     25909.66     0.9999745  6.345381E-08 
     28136.68     0.9999744  5.183892E-08 
     30630.84     0.9999743  4.209783E-08 
     33182.07     0.9999742  3.459694E-08 
     36273.21     0.9999740  2.781679E-08 
     39420.87     0.9999739  2.269567E-08 
     42516.28     0.9999737  1.886185E-08 
     46147.71     0.9999737  1.543240E-08 
     50143.65     0.9999737  1.259469E-08 
     55300.42     0.9999737  9.911981E-09 
     60953.69     0.9999737  7.811432E-09 
     67088.00     0.9999737  6.189409E-09 
     72320.52     0.9999736  5.157679E-09 
     79816.33     0.9999736  4.059779E-09 
     87877.35     0.9999735  3.214160E-09 
     95419.84     0.9999735  2.633456E-09 
     104814.2     0.9999735  2.101934E-09 
     115520.6     0.9999734  1.664074E-09 
     127185.6     0.9999734  1.324131E-09 
     129422.0     0.9999734  1.276995E-09 
     139646.8     0.9999734  1.061489E-09 
     152668.7     0.9999734  8.608310E-10 
     167804.8     0.9999734  6.904670E-10 
     183377.0     0.9999734  5.624520E-10 
     202293.3     0.9999734  4.492770E-10 
     223869.9     0.9999734  3.579470E-10 
     247260.3     0.9999734  2.872260E-10 
     269153.5     0.9999734  2.386950E-10 
     298274.9     0.9999734  1.918930E-10 
